0,1,2,3,4,5,6,7,8,9,10,11,12,13,14,15,16,17,18,19,20,21,22,23,24,25,26,27,28,29,30,31,32,33,34,35,36,37,38,39,40,41,42,43,44,45,46,47,48,49,50,51,52,53,54,55,56,57,58,59,60,61,62,63,64,65,66,67,68,69,70,71,72,73,74,75,76,77,78,79,80,81,82,83,84,85,86,87,88,89,90,91,92,93,94,95,96,97,98,99,100,101,102,103,104,105,106,107,108,109,110,111,112,113,114,115,116,117,118,119,120,121,122,123,124,125,126,127,128,129,130,131,132,133,134,135,136,137,138,139,140,141,142,143,144,145,146,147,148,149,150,151,152,153,154,155,156,157,158,159,160,161,162,163,164,165,166,167,168,169,170,171,172,173,174,175,176,177,178,179,180,181,182,183,184,185,186,187,188,189,190,191,192,193,194,195,196,197,198,199,200,201,202,203,204,205,206,207,208,209,210,211,212,213,214,215,216,217,218,219,220,221,222,223,224,225,226,227,228,229,230,231,232,233,234,235,236,237,238,239,240,241,242,243,244,245,246,247,248,249,250,251,252,253,254,255,256,257,258,259,260,261,262,263,264,265,266,267,268,269,270,271,272,273,274,275,276,277,278,279,280,281,282,283,284,285,286,287,288,289,290,291,292,293,294,295,296,297,298,299,300,301,302,303,304,305,306,307,308,309,310,311,312,313,314,315,316,317,318,319,320,321,322,323,324,325,326,327,328,329,330,331,332,333,334,335,336,337,338,339,340,341,342,343,344,345,346,347,348,349,350,351,352,353,354,355,356,357,358,359,360,361,362,363,364,365,366,367,368,369,370,371,372,373,374,375,376,377,378,379,380,381,382,383,384,385,386,387,388,389,390,391,392,393,394,395,396,397,398,399,400,401,402,403,404,405,406,407,408,409,410,411,412,413,414,415,416,417,418,419,420,421,422,423,424,425,426,427,428,429,430,431,432,433,434,435,436,437,438,439,440,441,442,443,444,445,446,447,448,449,450,451,452,453,454,455,456,457,458,459,460,461,462,463,464,465,466,467,468,469,470,471,472,473,474,475,476,477,478,479,480,481,482,483,484,485,486,487,488,489,490,491,492,493,494,495,496,497,498,499,500,501,502,503,504,505,506,507,508,509,510,511,512,513,514,515,516,517,518,519,520,521,522,523,524,525,526,527,528,529,530,531,532,533,534,535,536,537,538,539,540,541,542,543,544,545,546,547,548,549,550,551,552,553,554,555,556,557,558,559,560,561,562,563,564,565,566,567,568,569,570,571,572,573,574,575,576,577,578,579,580,581,582,583,584,585,586,587,588,589,590,591,592,593,594,595,596,597,598,599,600,601,602,603,604,605,606,607,608,609,610,611,612,613,614,615,616,617,618,619,620,621,622,623,624,625,626,627,628,629,630,631,632,633,634,635,636,637,638,639,640,641,642,643,644,645,646,647,648,649,650,651,652,653,654,655,656,657,658,659,660,661,662,663,664,665,666,667,668,669,670,671,672,673,674,675,676,677,678,679,680,681,682,683,684,685,686,687,688,689,690,691,692,693,694,695,696,697,698,699,700,701,702,703,704,705,706,707,708,709,710,711,712,713,714,715,716,717,718,719,720,721,722,723,724,725,726,727,728,729,730,731,732,733,734,735,736,737,738,739,740,741,742,743,744,745,746,747,748,749,750,751,752,753,754,755,756,757,758,759,760,761,762,763,764,765,766,767,768,769,770,771,772,773,774,775,776,777,778,779,780,781,782,783,784,785,786,787,788,789,790,791,792,793,794,795,796,797,798,799,800,801,802,803,804,805,806,807,808,809,810,811,812,813,814,815,816,817,818,819,820,821,822,823,824,825,826,827,828,829,830,831,832,833,834,835,836,837,838,839,840,841,842,843,844,845,846,847,848,849,850,851,852,853,854,855,856,857,858,859,860,861,862,863,864,865,866,867,868,869,870,871,872,873,874,875,876,877,878,879,880,881,882,883,884,885,886,887,888,889,890,891,892,893,894,895,896,897,898,899,900,901,902,903,904,905,906,907,908,909,910,911,912,913,914,915,916,917,918,919,920,921,922,923,924,925,926,927,928,929,930,931,932,933,934,935,936,937,938,939,940,941,942,943,944,945,946,947,948,949,950,951,952,953,954,955,956,957,958,959,960,961,962,963,964,965,966,967,968,969,970,971,972,973,974,975,976,977,978,979,980,981,982,983,984,985,986,987,988,989,990,991,992,993,994,995,996,997,998,999,1000,1001,1002,1003,1004,1005,1006,1007,1008,1009,1010,1011,1012,1013,1014,1015,1016,1017,1018,1019,1020,1021,1022,1023,1024,1025,1026,1027,1028,1029,1030,1031,1032,1033,1034,1035,1036,1037,1038,1039,1040,1041,1042,1043,1044,1045,1046,1047,1048,1049,1050,1051,1052,1053,1054,1055,1056,1057,1058,1059,1060,1061,1062,1063,1064,1065,1066,1067,1068,1069,1070,1071,1072,1073,1074,1075,1076,1077,1078,1079,1080,1081,1082,1083,1084,1085,1086,1087,1088,1089,1090,1091,1092,1093,1094,1095,1096,1097,1098,1099,1100,1101,1102,1103,1104,1105,1106,1107,1108,1109,1110,1111,1112,1113,1114,1115,1116,1117,1118,1119,1120,1121,1122,1123,1124,1125,1126,1127,1128,1129,1130,1131,1132,1133,1134,1135,1136,1137,1138,1139,1140,1141,1142,1143,1144,1145,1146,1147,1148,1149,1150,1151,1152,1153,1154,1155,1156,1157,1158,1159,1160,1161,1162,1163,1164,1165,1166,1167,1168,1169,1170,1171,1172,1173,1174,1175,1176,1177,1178,1179,1180,1181,1182,1183,1184,1185,1186,1187,1188,1189,1190,1191,1192,1193,1194,1195,1196,1197,1198,1199,1200,1201,1202,1203,1204,1205,1206,1207,1208,1209,1210,1211,1212,1213,1214,1215,1216,1217,1218,1219,1220,1221,1222,1223,1224,1225,1226,1227,1228,1229,1230,1231,1232,1233,1234,1235,1236,1237,1238,1239,1240,1241,1242,1243,1244,1245,1246,1247,1248,1249,1250,1251,1252,1253,1254,1255,1256,1257,1258,1259,1260,1261,1262,1263,1264,1265,1266,1267,1268,1269,1270,1271,1272,1273,1274,1275,1276,1277,1278,1279,1280,1281,1282,1283,1284,1285,1286,1287,1288,1289,1290,1291,1292,1293,1294,1295,1296,1297,1298,1299,1300,1301,1302,1303,1304,1305,1306,1307,1308,1309,1310,1311,1312,1313,1314,1315,1316,1317,1318,1319,1320,1321,1322,1323,1324,1325,1326,1327,1328,1329,1330,1331,1332,1333,1334,1335,1336,1337,1338,1339,1340,1341,1342,1343,1344,1345,1346,1347,1348,1349,1350,1351,1352,1353,1354,1355,1356,1357,1358,1359,1360,1361,1362,1363,1364,1365,1366,1367,1368,1369,1370,1371,1372,1373,1374,1375,1376,1377,1378,1379,1380,1381,1382,1383,1384,1385,1386,1387,1388,1389,1390,1391,1392,1393,1394,1395,1396,1397,1398,1399,1400,1401,1402,1403,1404,1405,1406,1407,1408,1409,1410,1411,1412,1413,1414,1415,1416,1417,1418,1419,1420,1421,1422,1423,1424,1425,1426,1427,1428,1429,1430,1431,1432,1433,1434,1435,1436,1437,1438,1439,1440,1441,1442,1443,1444,1445,1446,1447,1448,1449,1450,1451,1452,1453,1454,1455,1456,1457,1458,1459,1460,1461,1462,1463,1464,1465,1466,1467,1468,1469,1470,1471,1472,1473,1474,1475,1476,1477,1478,1479,1480,1481,1482,1483,1484,1485,1486,1487,1488,1489,1490,1491,1492,1493,1494,1495,1496,1497,1498,1499,1500,1501,1502,1503,1504,1505,1506,1507,1508,1509,1510,1511,1512,1513,1514,1515,1516,1517,1518,1519,1520,1521,1522,1523,1524,1525,1526,1527,1528,1529,1530,1531,1532,1533,1534,1535,1536,1537,1538,1539,1540,1541,1542,1543,1544,1545,1546,1547,1548,1549,1550,1551,1552,1553,1554,1555,1556,1557,1558,1559,1560,1561,1562,1563,1564,1565,1566,1567,1568,1569,1570,1571,1572,1573,1574,1575,1576,1577,1578,1579,1580,1581,1582,1583,1584,1585,1586,1587,1588,1589,1590,1591,1592,1593,1594,1595,1596,1597,1598,1599,1600,1601,1602,1603,1604,1605,1606,1607,1608,1609,1610,1611,1612,1613,1614,1615,1616,1617,1618,1619,1620,1621,1622,1623,1624,1625,1626,1627,1628,1629,1630,1631,1632,1633,1634,1635,1636,1637,1638,1639,1640,1641,1642,1643,1644,1645,1646,1647,1648,1649,1650,1651,1652,1653,1654,1655,1656,1657,1658,1659,1660,1661,1662,1663,1664,1665,1666,1667,1668,1669,1670,1671,1672,1673,1674,1675,1676,1677,1678,1679,1680,1681,1682,1683,1684,1685,1686,1687,1688,1689,1690,1691,1692,1693,1694,1695,1696,1697,1698,1699,1700,1701,1702,1703,1704,1705,1706,1707,1708,1709,1710,1711,1712,1713,1714,1715,1716,1717,1718,1719,1720,1721,1722,1723,1724,1725,1726,1727,1728,1729,1730,1731,1732,1733,1734,1735,1736,1737,1738,1739,1740,1741,1742,1743,1744,1745,1746,1747,1748,1749,1750,1751,1752,1753,1754,1755,1756,1757,1758,1759,1760,1761,1762,1763,1764,1765,1766,1767,1768,1769,1770,1771,1772,1773,1774,1775,1776,1777,1778,1779,1780,1781,1782,1783,1784,1785,1786,1787,1788,1789,1790,1791,1792,1793,1794,1795,1796,1797,1798,1799,1800,1801,1802,1803,1804,1805,1806,1807,1808,1809,1810,1811,1812,1813,1814,1815,1816,1817,1818,1819,1820,1821,1822,1823,1824,1825,1826,1827,1828,1829,1830,1831,1832,1833,1834,1835,1836,1837,1838,1839,1840,1841,1842,1843,1844,1845,1846,1847,1848,1849,1850,1851,1852,1853,1854,1855,1856,1857,1858,1859,1860,1861,1862,1863,1864,1865,1866,1867,1868,1869,1870,1871,1872,1873,1874,1875,1876,1877,1878,1879,1880,1881,1882,1883,1884,1885,1886,1887,1888,1889,1890,1891,1892,1893,1894,1895,1896,1897,1898,1899,1900,1901,1902,1903,1904,1905,1906,1907,1908,1909,1910,1911,1912,1913,1914,1915,1916,1917,1918,1919,1920,1921,1922,1923,1924,1925,1926,1927,1928,1929,1930,1931,1932,1933,1934,1935,1936,1937,1938,1939,1940,1941,1942,1943,1944,1945,1946,1947,1948,1949,1950,1951,1952,1953,1954,1955,1956,1957,1958,1959,1960,1961,1962,1963,1964,1965,1966,1967,1968,1969,1970,1971,1972,1973,1974,1975,1976,1977,1978,1979,1980,1981,1982,1983,1984,1985,1986,1987,1988,1989,1990,1991,1992,1993,1994,1995,1996,1997,1998,1999,2000,2001,2002,2003,2004,2005,2006,2007,2008,2009,2010,2011,2012,2013,2014,2015,2016,2017,2018,2019,2020,2021,2022,2023,2024,2025,2026,2027,2028,2029,2030,2031,2032,2033,2034,2035,2036,2037,2038,2039,2040,2041,2042,2043,2044,2045,2046,2047,2048,2049,2050,2051,2052,2053,2054,2055,2056,2057,2058,2059,2060,2061,2062,2063,2064,2065,2066,2067,2068,2069,2070,2071,2072,2073,2074,2075,2076,2077,2078,2079,2080,2081,2082,2083,2084,2085,2086,2087,2088,2089,2090,2091,2092,2093,2094,2095,2096,2097,2098,2099,2100,2101,2102,2103,2104,2105,2106,2107,2108,2109,2110,2111,2112,2113,2114,2115,2116,2117,2118,2119,2120,2121,2122,2123,2124,2125,2126,2127,2128,2129,2130,2131,2132,2133,2134,2135,2136,2137,2138,2139,2140,2141,2142,2143,2144,2145,2146,2147,2148,2149,2150,2151,2152,2153,2154,2155,2156,2157,2158,2159,2160,2161,2162,2163,2164,2165,2166,2167,2168,2169,2170,2171,2172,2173,2174,2175,2176,2177,2178,2179,2180,2181,2182,2183,2184,2185,2186,2187,2188,2189,2190,2191,2192,2193,2194,2195,2196,2197,2198,2199,2200,2201,2202,2203,2204,2205,2206,2207,2208,2209,2210,2211,2212,2213,2214,2215,2216,2217,2218,2219,2220,2221,2222,2223,2224,2225,2226,2227,2228,2229,2230,2231,2232,2233,2234,2235,2236,2237,2238,2239,2240,2241,2242,2243,2244,2245,2246,2247,2248,2249,2250,2251,2252,2253,2254,2255,2256,2257,2258,2259,2260,2261,2262,2263,2264,2265,2266,2267,2268,2269,2270,2271,2272,2273,2274,2275,2276,2277,2278,2279,2280,2281,2282,2283,2284,2285,2286,2287,2288,2289,2290,2291,2292,2293,2294,2295,2296,2297,2298,2299,2300,2301,2302,2303,2304,2305,2306,2307,2308,2309,2310,2311,2312,2313,2314,2315,2316,2317,2318,2319,2320,2321,2322,2323,2324,2325,2326,2327,2328,2329,2330,2331,2332,2333,2334,2335,2336,2337,2338,2339,2340,2341,2342,2343,2344,2345,2346,2347,2348,2349,2350,2351,2352,2353,2354,2355,2356,2357,2358,2359,2360,2361,2362,2363,2364,2365,2366,2367,2368,2369,2370,2371,2372,2373,2374,2375,2376,2377,2378,2379,2380,2381,2382,2383,2384,2385,2386,2387,2388,2389,2390,2391,2392,2393,2394,2395,2396,2397,2398,2399,2400,2401,2402,2403,2404,2405,2406,2407,2408,2409,2410,2411,2412,2413,2414,2415,2416,2417,2418,2419,2420,2421,2422,2423,2424,2425,2426,2427,2428,2429,2430,2431,2432,2433,2434,2435,2436,2437,2438,2439,2440,2441,2442,2443,2444,2445,2446,2447,2448,2449,2450,2451,2452,2453,2454,2455,2456,2457,2458,2459,2460,2461,2462,2463,2464,2465,2466,2467,2468,2469,2470,2471,2472,2473,2474,2475,2476,2477,2478,2479,2480,2481,2482,2483,2484,2485,2486,2487,2488,2489,2490,2491,2492,2493,2494,2495,2496,2497,2498,2499,2500,2501,2502,2503,2504,2505,2506,2507,2508,2509,2510,2511,2512,2513,2514,2515,2516,2517,2518,2519,2520,2521,2522,2523,2524,2525,2526,2527,2528,2529,2530,2531,2532,2533,2534,2535,2536,2537,2538,2539,2540,2541,2542,2543,2544,2545,2546,2547,2548,2549,2550,2551,2552,2553,2554,2555,2556,2557,2558,2559,2560,2561,2562,2563,2564,2565,2566,2567,2568,2569,2570,2571,2572,2573,2574,2575,2576,2577,2578,2579,2580,2581,2582,2583,2584,2585,2586,2587,2588,2589,2590,2591,2592,2593,2594,2595,2596,2597,2598,2599,2600,2601,2602,2603,2604,2605,2606,2607,2608,2609,2610,2611,2612,2613,2614,2615,2616,2617,2618,2619,2620,2621,2622,2623,2624,2625,2626,2627,2628,2629,2630,2631,2632,2633,2634,2635,2636,2637,2638,2639,2640,2641,2642,2643,2644,2645,2646,2647,2648,2649,2650,2651,2652,2653,2654,2655,2656,2657,2658,2659,2660,2661,2662,2663,2664,2665,2666,2667,2668,2669,2670,2671,2672,2673,2674,2675,2676,2677,2678,2679,2680,2681,2682,2683,2684,2685,2686,2687,2688,2689,2690,2691,2692,2693,2694,2695,2696,2697,2698,2699,2700,2701,2702,2703,2704,2705,2706,2707,2708,2709,2710,2711,2712,2713,2714,2715,2716,2717,2718,2719,2720,2721,2722,2723,2724,2725,2726,2727,2728,2729,2730,2731,2732,2733,2734,2735,2736,2737,2738,2739,2740,2741,2742,2743,2744,2745,2746,2747,2748,2749,2750,2751,2752,2753,2754,2755,2756,2757,2758,2759,2760,2761,2762,2763,2764,2765,2766,2767,2768,2769,2770,2771,2772,2773,2774,2775,2776,2777,2778,2779,2780,2781,2782,2783,2784,2785,2786,2787,2788,2789,2790,2791,2792,2793,2794,2795,2796,2797,2798,2799,2800,2801,2802,2803,2804,2805,2806,2807,2808,2809,2810,2811,2812,2813,2814,2815,2816,2817,2818,2819,2820,2821,2822,2823,2824,2825,2826,2827,2828,2829,2830,2831,2832,2833,2834,2835,2836,2837,2838,2839,2840,2841,2842,2843,2844,2845,2846,2847,2848,2849,2850,2851,2852,2853,2854,2855,2856,2857,2858,2859,2860,2861,2862,2863,2864,2865,2866,2867,2868,2869,2870,2871,2872,2873,2874,2875,2876,2877,2878,2879,2880,2881,2882,2883,2884,2885,2886,2887,2888,2889,2890,2891,2892,2893,2894,2895,2896,2897,2898,2899,2900,2901,2902,2903,2904,2905,2906,2907,2908,2909,2910,2911,2912,2913,2914,2915,2916,2917,2918,2919,2920,2921,2922,2923,2924,2925,2926,2927,2928,2929,2930,2931,2932,2933,2934,2935,2936,2937,2938,2939,2940,2941,2942,2943,2944,2945,2946,2947,2948,2949,2950,2951,2952,2953,2954,2955,2956,2957,2958,2959,2960,2961,2962,2963,2964,2965,2966,2967,2968,2969,2970,2971,2972,2973,2974,2975,2976,2977,2978,2979,2980,2981,2982,2983,2984,2985,2986,2987,2988,2989,2990,2991,2992,2993,2994,2995,2996,2997,2998,2999,3000,3001,3002,3003,3004,3005,3006,3007,3008,3009,3010,3011,3012,3013,3014,3015,3016,3017,3018,3019,3020,3021,3022,3023,3024,3025,3026,3027,3028,3029,3030,3031,3032,3033,3034,3035,3036,3037,3038,3039,3040,3041,3042,3043,3044,3045,3046,3047,3048,3049,3050,3051,3052,3053,3054,3055,3056,3057,3058,3059
0.9130616734853132,0.9030484819624514,0.8846805694405369,0.8753909518633585,0.8810379086270981,0.8845712225942373,0.8810921543322459,0.8753632908828164,0.8808308152051072,0.8774385002358451,0.87519085483983,0.8786523247308322,0.8737154864599197,0.8647029785193983,0.8492154723015717,0.8123575703071813,0.7678171247462697,0.7198142252806428,0.6852117253997696,0.7090705682021701,0.7536232740665576,0.7926167401691044,0.8189772956521464,0.8424693544948729,0.861496436156794,0.8830296562441229,0.8886254768813331,0.8631310833398609,0.820849004294244,0.7569275063550913,0.6896969483468869,0.6157398176004545,0.5745444708418841,0.6242448877416875,0.6981140580004719,0.7665829361130803,0.8379646820121498,0.9089219045318356,0.9726122407827628,0.99188510536755,0.9448298437629667,0.9015754455226346,0.8735646130561829,0.854984538617126,0.8737887606906578,0.8944048415705057,0.9139176025519724,0.9164872933170204,0.9123636807001478,0.9206461590697574,0.9329038246410148,0.9410907937149284,0.9463894159934968,0.9390894957375842,0.9360864240833048,0.9229788207255314,0.9084550585233686,0.9007514126449478,0.8835169746102844,0.8588835602076585,0.822880491517729,0.7829783929613168,0.7355877343734758,0.687322294772571,0.6600512815949477,0.691766166769882,0.7359395070711212,0.7768515121708135,0.8101235620051825,0.83808021442514,0.8609645977579141,0.8851604624139016,0.8933941281922146,0.8739072224563382,0.8278122392679161,0.7682714779753004,0.7016670742529647,0.6300243890667676,0.5627010993957149,0.4883600739455256,0.4205599528030797,0.4313577285684244,0.5030014305147945,0.5750728883785194,0.6327058175849962,0.6972991766071626,0.7713697994968982,0.842634516460119,0.9110080414111494,0.9774233776262844,1.0,0.9493810963594552,0.9000255606292142,0.8762567815261231,0.8502676503694206,0.8565038741744393,0.8784432934652826,0.8845776717632987,0.8846352825771104,0.8851220639942983,0.8903774276926664,0.8944725529444579,0.9032492024771266,0.9058768245204728,0.9041498382760048,0.9016495866356868,0.8958291871581665,0.9019695843349942,0.906065475392476,0.9049054184350434,0.8924236042334424,0.8610596604745098,0.8151097723550891,0.7661721175943794,0.7399364674961861,0.7445367539091188,0.7090953103689932,0.6576351143327861,0.5876800112492444,0.5413856296420934,0.5492699164732369,0.6085251259847404,0.667851791314658,0.7139084988556723,0.7618407438471406,0.8138249608076142,0.8480873324984697,0.8667946187189017,0.8680030398048253,0.8600022399213594,0.8588538717390337,0.8589081988963825,0.8630705946110202,0.8668585393869848,0.8586375627672678,0.8517838731677883,0.8476352727999987,0.8399245941811608,0.8433165367808346,0.8412704895632963,0.8356494853419638,0.8200150018719805,0.8116809349526386,0.8238928868742494,0.8520491981489327,0.8654768142462019,0.8156197557705664,0.7483868211666951,0.673916911704191,0.6023410605328092,0.53397775804502,0.4591518737018005,0.3854911405358066,0.3183621837685286,0.2444118049388361,0.1694616360618122,0.1004285702273721,0.0319415333240211,0.0,0.0481842611595545,0.1146566877752133,0.188133936629596,0.263288128164908,0.3384471550342454,0.413606181903583,0.4887156383741877,0.5598746332743034,0.628471176585043,0.6980587351376557,0.7645441106845068,0.8156165863885239,0.8442344459053623,0.8344690749209769,0.8113923147098763,0.7833468036136266,0.7534492445453185,0.7141192961393981,0.6652615517849663,0.6254116038452591,0.6016237781169822,0.6270845578115252,0.6749847351399461,0.7234938623247329,0.7695902413496607,0.8100335333614592,0.8371452400015793,0.8560147951315404,0.866533234728327,0.879151860419753,0.8922458229891723,0.8961872302814127,0.9042125652482924,0.9082637404857934,0.8973696634633554,0.8944172864395321,0.8817752053246817,0.8735849739263424,0.8797026873693101,0.8747987847562348,0.8541917780826112,0.8300699433734844,0.8125540887173572,0.8288118234996515,0.8574176673382841,0.8660107759434492,0.8154293361889517,0.7441086828724206,0.6759880859283007,0.6015798191141755,0.5334295230526986,0.4616058492573571,0.3864747843117373,0.311385569629566,0.2407731406597004,0.1715650761508611,0.0985774308546894,0.0663402030025696,0.114976333351259,0.1855499763702275,0.2543475280965586,0.3253538977187231,0.4004575087767399,0.4740364136851029,0.5411461621027598,0.6151841932749598,0.6878285193506926,0.7547693696013809,0.8120923702428346,0.8449161814057575,0.8430072450341546,0.8196634757420824,0.798744119529524,0.7775480052718069,0.7556195349831685,0.7143993725937765,0.6708954856010683,0.6381884154099646,0.6533666663097344,0.6994745025145315,0.7486435585029965,0.7936962246271131,0.8171968250727419,0.8324224474779436,0.8373110244567052,0.8373666684299685,0.8380681812340918,0.8403065500765177,0.8386244517351573,0.8421672733393968,0.8473669730957756,0.8422838765622143,0.8374835462674113,0.8424731126788991,0.8633269687367371,0.8771342995318481,0.4811847801870361,0.4543142901640111,0.4356918932835443,0.4083402247717291,0.390870508379403,0.3676963693553712,0.3477451010895906,0.3210571169244711,0.273178959897645,0.2239565721118803,0.1615062365653736,0.1181233751317987,0.0610170304368695,0.0214218286504901,0.0013376852160016,0.0007793387144197,0.0233364108739131,0.0865300561166888,0.1382480787076145,0.188740637853253,0.2383050346290751,0.2619172558897675,0.2819929594181984,0.3296248524779286,0.3796691852277356,0.435253787342774,0.493964905338808,0.5560751765837741,0.6262440702204373,0.6866576445167398,0.7474471678396628,0.8176964726916225,0.888007600905524,0.95476999943828,0.95476999943828,0.888007600905524,0.8176964726916225,0.7473882533089315,0.6815560359225685,0.6256836325494994,0.5560381923886766,0.4859087326585558,0.4270242680785228,0.3691561584877716,0.3372500920641448,0.3429928396751558,0.2908176035082834,0.2206086935526459,0.1502952678239246,0.0800121641624005,0.0190594170406721,0.0014631857632285,0.0,0.0054404705884549,0.0228709883495454,0.0529866078862268,0.1039265905441664,0.1516190215844197,0.1910350757868726,0.2498299449859438,0.2912034998649431,0.3316066123512455,0.3534995919232573,0.3703846253901406,0.3944291201882413,0.4125412958504237,0.438001878828218,0.4531369128650828,0.4788201599972428,0.5057577148591625,0.535307401505797,0.5780300081676777,0.6204989263218188,0.6560593178179159,0.6954762358564728,0.6880712724681395,0.6534930865355482,0.6138681635053458,0.5566692265504911,0.5183676958063606,0.4788603974155658,0.4571895754133002,0.4318751183811593,0.4072866507672983,0.375773776248395,0.3552133345425838,0.3527085469161761,0.3546481242581492,0.3704625555265828,0.3723002863628104,0.3723012644690349,0.3723018350309988,0.374104824539657,0.3899671424574542,0.3918956682203234,0.3918968093442521,0.3918968093442521,0.3922613404580124,0.3996257753243553,0.3924169781702278,0.3999910263483084,0.396455170791929,0.4015771611297576,0.4114082795329485,0.4114926802548773,0.4124643011434377,0.4302162332024974,0.4598397732656849,0.4900334299159099,0.5183361667162183,0.5173672557537317,0.5002562068389458,0.4823371432696599,0.4450414495012693,0.4302600657691182,0.4131276221838238,0.3939322844558348,0.4045594433639041,0.449448960947465,0.5010293708473803,0.5669564731907442,0.6217903481611757,0.6909017705578631,0.7611219923261658,0.8221949408384375,0.8811889069491099,0.9010456955948136,0.8463761550641737,0.7762000247205729,0.7058865989918526,0.6355731732631305,0.5652597475344097,0.4949489300889547,0.42865591468804,0.3756517910958727,0.3387444237438921,0.3526483710608068,0.3791498948503351,0.3921367407162419,0.4060212690201972,0.4231675028245267,0.4310572113946223,0.4338747264116001,0.4546205565556254,0.4778947581657848,0.4962482652964253,0.5248448919770161,0.5553917188011694,0.5979374246044515,0.6357030367143439,0.6764492989418316,0.7048350480817134,0.7391648050320438,0.7189679633086157,0.6767375212824929,0.6223471347896017,0.5684496908129351,0.5212882955666451,0.4888516250270993,0.4497953879833209,0.4223815567332107,0.395181250844852,0.3826518117362196,0.3724161677291842,0.3723012644690349,0.3723012644690349,0.3723012644690349,0.3723012644690349,0.3722936230779439,0.3675829072154322,0.3548588132873269,0.3698675188775566,0.3637227791773778,0.3528559620151061,0.3589994054914807,0.3720014370618458,0.3750767366956267,0.3906038480678737,0.3918968093442521,0.3918968093442521,0.3912406759415705,0.3772892619042753,0.3874247273425149,0.3949447644122337,0.4109649811299158,0.4354428257667031,0.4695260642637895,0.4875595287881689,0.4736886911366422,0.4526303112328609,0.429665320877632,0.4035692909403772,0.3912452842205116,0.3708319532270021,0.3401047581593435,0.3508763416659048,0.3961721658219712,0.4580621130465494,0.5215163883087546,0.5793555558324557,0.6493924443157693,0.7139890042160433,0.7707801033824424,0.8407500548977613,0.9110136752655243,0.9737787302616234,1.0,0.9433223570899464,0.8730250699863542,0.8027116442576321,0.7323982185289104,0.6620847928001887,0.5917713670714693,0.5214850630943233,0.4580370142157259,0.4017267541133416,0.3564214922499253,0.3425932759463168,0.3642946688127231,0.3571251068293941,0.3621654944975145,0.367732660583608,0.3797151925719495,0.3921367407162419,0.4060212690201972,0.4231765731437589,0.4356735044553486,0.4628569819810453,0.4857685019430349,0.5132034790031281,0.5576687312720923,0.5914807380212204,0.6330380142945904,0.6749745004852139,0.6987772010317435,0.6858067307135154,0.6356549825137034,0.5940687078331486,0.5475599744412363,0.5116855385981616,0.4831825144394859,0.4584528850170191,0.441152459148213,0.4311830577737146,0.4259041895513191,0.4120378069880388,0.4114923542194693,0.4114923542194693,0.4114923542194693,0.4114928840270075,0.413157069696382,0.4285623725663998,0.4169388232782429,0.4115322509259744,0.4165931338511486,0.3833682904086855,0.3833682904086855,0.3833682904086855,0.3833679623569366,0.3820789858323552,0.3707551056060447,0.3690414267071582,0.3639838851533077,0.35007553945798,0.3204854423034882,0.2887744073593614,0.2852696549616658,0.3079225899749271,0.3275807912448525,0.349977375436318,0.3671337829998866,0.3800903155715747,0.3736412405078404,0.3522676906455149,0.3089619010232844,0.2602901249314286,0.2069159467283645,0.1635742577941989,0.1109108946993173,0.0648650510324866,0.0307190260525371,0.0455142013956095,0.0918518178468659,0.1351488167519159,0.188543072973415,0.24057127125233,0.2841524604525776,0.3381338657421353,0.3927629451868717,0.4473921616283891,0.5019852955675845,0.5509941302414259,0.5971362166033147,0.6516067171351265,0.7062359335766439,0.76086515001816,0.815494246235482,0.8694056299072557,0.9005286518946121,0.8666154124477496,0.823341668670996,0.7707908714324918,0.7161694830231324,0.6653316949123766,0.6207715523122999,0.5674894740575889,0.5240406089796799,0.4762319156566317,0.4313989484635145,0.387302125953695,0.3439891576125506,0.3210879004868308,0.309959977275053,0.2984472224535515,0.2975726295611487,0.302128884331466,0.3155121511465366,0.3204314185749046,0.3072605618010673,0.2899622842414118,0.2833207865022964,0.2849749115194266,0.3004123399722451,0.3315332813199663,0.36657364287881,0.3916186176469169,0.3976403494194769,0.3977529280297545,0.4048571822052138,0.4219169765663002,0.4318007621006892,0.4410135101322341,0.4518447390799376,0.4562872596759972,0.4676989489334779,0.4691816426258945,0.4691822273128907,0.4697371525348375,0.4799973121536087,0.474259615059267,0.4692030303498717,0.4691224988751639,0.4619329481586534,0.4593208714060144,0.4630193382127228,0.4550194845453994,0.4550430307382109,0.4625149579801633,0.4550492012100977,0.4350930534395361,0.4079013914552241,0.3858663252069165,0.3762409377733076,0.3903977219643426,0.4135324725861258,0.4333544178683364,0.4405723687993403,0.4461227970091577,0.4417481051772163,0.4086020970979911,0.3647577859048883,0.316207492170578,0.2701188150566715,0.2160299421145395,0.1718605748736981,0.1218510187398522,0.0884375323361228,0.0945375055894481,0.1374251819463352,0.1839010542328067,0.2378254086752171,0.2818725519116363,0.3333709190725549,0.3879955084337618,0.442622857114916,0.4950742154766074,0.5385271009628818,0.592210289800057,0.6468392803820171,0.7014684968235341,0.756097713265051,0.810726929706568,0.8653561461480841,0.9199853324132844,0.9741987837949616,1.0,0.9611767306725928,0.9068608516939348,0.8524440626028489,0.8067571524252437,0.7572542708427004,0.7026520624757762,0.6516601392533161,0.607256613043277,0.5588581316445316,0.5147133883730501,0.4732227323092863,0.4352269835698563,0.409864507998702,0.3874182904027203,0.3688383763832052,0.3555164295370119,0.3547636301418841,0.3534442659722829,0.340979176610332,0.321414204890825,0.2978157392359559,0.2795983309240801,0.2692365568794623,0.271000953341332,0.2918807406567012,0.324868566564271,0.3540169310989296,0.3866605447560856,0.405936058626708,0.4017541098493415,0.3976863228800771,0.3988055790481235,0.4111032762377924,0.4240982242469107,0.4262726769174931,0.4262752211866738,0.4262752211866738,0.4262752211866738,0.4262752211866738,0.4262752211866738,0.4262752211866738,0.4263519418710415,0.4329916175858406,0.4387677479072023,0.4273599838520932,0.4262759534172069,0.4262752211866738,0.4262751078866342,0.425706821121977,0.4147850359984346,0.4116476996754175,0.401642065759527,0.390695828239,0.3653627765226237,0.3380585314269946,0.3153468583201748,0.3210264207042503,0.3415840170757573,0.3558223093722352,0.3674396467060346,0.36086819692831,0.3505589641957729,0.3189023196010083,0.268740446287341,0.2249169810428575,0.1714207082464671,0.1275760799181515,0.0762812453323771,0.0317055574157816,0.0,0.0082205113024935,0.0568636646642306,0.1107666853863764,0.1477371249108738,0.1922452917874131,0.2467601337039666,0.2985582020746768,0.3422817847371817,0.3963526549624547,0.4509817610660258,0.5056109775075419,0.5602348077747141,0.6122844059727113,0.6558591799872602,0.7098256744541978,0.7644547494557967,0.8190839409046573,0.873490577534894,0.9135527684874134,0.8901895612451285,0.836173230699444,0.7874062800177266,0.7410399276137998,0.6865558229660151,0.6359161041933716,0.5912020237953604,0.5379647769563509,0.4945375541309844,0.4439728796611266,0.4023269264509781,0.3638987543268839,0.3284070169837312,0.3000275392015501,0.2786765762981908,0.2673770992673168,0.2542611549805511,0.241468526917477,0.2301626448144031,0.2166848028443331,0.2067086736228471,0.1891344270283377,0.1723337484770981,0.1739071676328278,0.1981162327222625,0.2263577285220259,0.2597052812316525,0.2934628818816858,0.333853872818644,0.370881522791362,0.4050027468883717,0.4423984627929518,0.4757208992088668,0.5087111831774176,0.5402519035956335,0.634362351168414,0.645742844171415,0.6451819247511732,0.651990201704362,0.6645320994711674,0.6489072403291838,0.6397162476987572,0.6442359496752343,0.6415259286828678,0.6424611801434825,0.6946699133313372,0.72509771829776,0.7123968984758975,0.7215809027104518,0.7371332649383378,0.6998042330441503,0.6209848536892941,0.5319248465770003,0.440432514571323,0.3510896574791169,0.2581839041734639,0.1700251372476027,0.0837467451857316,0.0865372064660696,0.1669053926738288,0.2558448170000229,0.3469782559980605,0.4355273323078714,0.528105995264192,0.6217512347658765,0.7095814404103751,0.7935216534272904,0.7778398959713855,0.7191895493189275,0.680977766242999,0.6560466048564277,0.6300515837498784,0.5973762811398182,0.554393133342904,0.5015875592189609,0.4727789500503974,0.4993177131874582,0.5560255250395334,0.6040145089957176,0.640005768348338,0.6556756568401318,0.6694749377939508,0.6790629969941919,0.6802524248995485,0.6774424533339392,0.678867977537321,0.6792755448675118,0.6906561315805522,0.691907154675411,0.6941843973564878,0.6909428188336013,0.6911857918097823,0.6662009944479779,0.6652117398746291,0.6878359858716749,0.7204410921089777,0.7028029446748059,0.6209790099653114,0.5335705245999336,0.4417669537254465,0.3542410665075466,0.2592802865795436,0.1704798247592476,0.0783141494276544,0.0,0.0208052631721633,0.1097426426497001,0.1975415986880835,0.288238551676325,0.3778655030341515,0.4740343568683649,0.5658559809896246,0.6551446026519965,0.7498546899740586,0.7912615263321834,0.7429471356538755,0.7065199284453751,0.6859889079090149,0.660463505102048,0.6218432224416226,0.5734719285978047,0.5212101203480262,0.4678086708706792,0.4527017180874964,0.4959769795188338,0.5635096823048209,0.6158049553089822,0.6489645171523553,0.6645204595913017,0.6752627067199974,0.6753840271640497,0.6817465029301146,0.6921059838787567,0.7239206296458642,0.7093900498962717,0.7112482864739882,0.6878742472225194,0.674422472823631,0.6478868830337523,0.6042303045492186,0.583312018900384,0.6209669837001113,0.6742259574568881,0.6886944558751782,0.6664486720176594,0.6007292695007769,0.5149730692492878,0.4252394238385384,0.3368049798590531,0.2432056688107913,0.1556966214232507,0.0722575214209146,0.0698759725270601,0.146161087193011,0.2331123499807053,0.3248548899544139,0.4212676328512019,0.5177399306812589,0.6122414109969625,0.6996133870944734,0.7768667393810145,0.7601515328915289,0.712179365613175,0.6678224696426713,0.6398997506508286,0.6564993170215041,0.6937472934221443,0.7336035829335874,0.7853270592489878,0.8510559101148039,0.9318788014510307,0.9644444801641898,0.8984256988353365,0.8058778166423328,0.7176601188821767,0.6245370105669636,0.5285684376567907,0.4402391449717868,0.3700359877696055,0.4144552550970937,0.4892511903528198,0.5695987354750944,0.6541588350836742,0.7149538096782144,0.7434219868092058,0.7608463942500878,0.7078896846840943,0.6578702377077297,0.6476251905079595,0.6844477381345151,0.7105579048651502,0.7389657454159904,0.7872202805917901,0.7961637296551427,0.7872307114883685,0.783641336854709,0.7435241927466902,0.7248040056357101,0.7194306599184388,0.7137159835378062,0.7014936254401769,0.6837850254029136,0.6555251625398262,0.6056999499504416,0.5443010424835533,0.4987028835508442,0.5323541583216607,0.5886980351036009,0.6351759384724944,0.6800196360337332,0.7084325983542519,0.730293228430732,0.7587372152217398,0.817396400907983,0.8945603681298697,0.9689721987702068,0.9665422071981128,0.888955166370194,0.7959581451005817,0.6995057470139467,0.6030268962825933,0.5065501904770608,0.4112989820146853,0.3250647067982615,0.2873980099968085,0.3660158983728094,0.4544310450014657,0.5467758547992925,0.633127113473956,0.7046573974217216,0.7640440556067578,0.7677658040580939,0.7399585729907325,0.7124718195377218,0.7110494459216306,0.7329998653068126,0.7351209131223493,0.7367006269122587,0.7305565137651746,0.7275355345497532,0.721789481271369,0.7191371793293795,0.7206193300247803,0.7160183650826848,0.7073145832234096,0.6949748900828265,0.6777123712932542,0.6454127411488526,0.6005061348721954,0.5421242513015048,0.5230736624797849,0.566527273741189,0.6152957982581264,0.6513426960157924,0.6759573301783071,0.6948758250228286,0.7247015526142044,0.7718667318984644,0.843151017502979,0.932947296230618,0.9999999999999998,0.9750375401194672,0.8977625447696849,0.8213327320942787,0.7287829524540002,0.6413114433059499,0.546389399137106,0.4574465363952742,0.3692593708945024,0.3598365367473197,0.4469392233754987,0.5344308848418866,0.6293619877628711,0.7152752793946366,0.7659773376778933,0.7749346514004005,0.7575990922947946,0.7536938128089086,0.7710398387420259,0.745245731859802,0.6922956895088721,0.68619383348101,0.6860673740728058,0.684561564053203,0.7000836618386532,0.7072967249357178,0.6886829207056866,0.6827226713802255,0.6820126168675615,0.6768538159891546,0.6604688696700318,0.7077498921535277,0.707201892963397,0.7031883414635023,0.7031735051726837,0.7031735051726837,0.7031752708908945,0.7049134964214967,0.7173246627189749,0.7173476233913219,0.7076122858550389,0.728897402071019,0.7429540541950721,0.7344316638076425,0.732049121546154,0.7376847203001691,0.7045896144207697,0.6776936716232465,0.6432098652998297,0.5904297554969458,0.5484689807581646,0.5728347607023898,0.6213369778621236,0.6681203873871908,0.7023895865251428,0.7233007025607603,0.7352460071218201,0.7461274984873127,0.7794367982980401,0.8329034638857764,0.922367408763804,1.0,0.9762041504110028,0.8631639061449046,0.737972163460094,0.6192807609036568,0.5087172502838935,0.4114570071033152,0.4371613652279822,0.5369709438598749,0.6143680135607088,0.6963544497190695,0.7405200851887255,0.7209764010087296,0.6798144672294799,0.6293962431689111,0.5888581372075543,0.6291611431522859,0.686160317123901,0.7123234221144497,0.7105553998124603,0.7113094399207864,0.7057040349135297,0.7205951558953103,0.7126271174351757,0.7309166417906301,0.7358587893001576,0.7255384896667367,0.7374076624264392,0.7381292367812247,0.7409415022655792,0.7453860779979795,0.7548531943823948,0.7476515128879275,0.730559698777304,0.7026065245567121,0.6736504977089606,0.6327088665328202,0.5815370914733258,0.5702740792768481,0.6129318908369674,0.6630350281522666,0.70254780814868,0.732317095776569,0.7348096119666194,0.7450818510931088,0.7636445237312817,0.8216266377492509,0.9127330139361488,0.9944545833779256,0.965035443519004,0.8597524948788307,0.7458266204193227,0.631140521258748,0.5159873293219515,0.4122466234666611,0.4287981854870022,0.5274657207127107,0.6066340026371204,0.6788890765571467,0.701830305937666,0.6793191707180872,0.6280178488848391,0.5833066274349878,0.5552062513519922,0.6200950984511664,0.6662264814187266,0.6670939746697644,0.6635376523939756,0.674185326459531,0.6643653815747901,0.674679848897942,0.67522623814805,0.6841490565288755,0.6953594209671206,0.6842165737278743,0.6976911201540772,0.7062169459045586,0.708941403520635,0.7032355181805032,0.703018318926171,0.6963244894835103,0.6915919559614685,0.6717219954600866,0.6368226230955032,0.5844486266990829,0.5470769861116178,0.5474094467635529,0.5042464016195951,0.4260227086726549,0.3042787880323829,0.1814397476213662,0.111740156654382,0.1199719655907105,0.2082440365512599,0.3326908820703225,0.4474233125615319,0.4692406161162354,0.373579569452414,0.2487308686837521,0.1391246468023705,0.1080157702431927,0.135253737922488,0.2421728862368715,0.3671060549830929,0.4697597908499387,0.5220351404014765,0.589159037478431,0.6139838314383148,0.6311203511801597,0.6393068104620587,0.6320592977256276,0.6329730096798167,0.6352022049578716,0.6311827417880869,0.617759568886012,0.6194486710257863,0.6288409313189445,0.6131968002805781,0.6062913513178745,0.591238551936168,0.6005600809589153,0.5986484486751009,0.5995062503114164,0.596304295096246,0.544628185869362,0.4787822359717206,0.4550597495725275,0.5106423128556683,0.5647124440317639,0.6139428170186201,0.6351085118992006,0.5790853832718037,0.4712323659925124,0.3637549968681122,0.2553423552252991,0.1334071405645556,0.0290589428050287,0.0,0.0879164619674979,0.2025227498316364,0.3073310439524035,0.4148029545509311,0.5252738796488141,0.6496591607160433,0.7582777451376508,0.7458949629042055,0.7033622279377925,0.6880912982326497,0.667798332932322,0.6512673451166919,0.6263372257970818,0.5831436926590676,0.5313721404917389,0.5069216187912988,0.5219172368298524,0.5636413067926789,0.6113474465134288,0.6413414237770989,0.6610777201069413,0.6694015920035614,0.6737006514904778,0.6686738682789874,0.6584413233938884,0.659016052202587,0.6582060614494902,0.6622837165298172,0.6550035005945762,0.6527229388292306,0.651537608924718,0.6363810694690972,0.6323827946838665,0.6419664977329038,0.6282960963355011,0.5814488644591114,0.519189236947748,0.4927067158634011,0.5370626449982172,0.5914806192645945,0.6466365993404177,0.6571270093353556,0.5805449680943182,0.4799945393787572,0.3749477282762008,0.2610844456786299,0.1505721189021684,0.0398369420364521,0.0228814138990722,0.1121041739617303,0.2342042330655416,0.3560231402652634,0.4621156100989148,0.5698776724146573,0.6912334247242109,0.7615788898905547,0.7349489687750537,0.6891680031992702,0.6798947020449706,0.6607508722132134,0.6504723966359958,0.6281364923191499,0.5888078533723271,0.5399967148905107,0.4911496300239597,0.4710212231384316,0.5058477332265445,0.5605933296250183,0.6067989447677657,0.6301719282162734,0.6569021605513545,0.6625540173895765,0.6721116263249387,0.6635768465662815,0.6562899622379921,0.6527578782181065,0.6527008890504118,0.6478847433356769,0.6328120493550067,0.6324002371427957,0.6393076483481592,0.6321905117284627,0.6319657374775711,0.6392461035561943,0.597878771201767,0.5337244028984078,0.9333279724435803,0.9134955309355182,0.9084515729983856,0.9255571856323156,0.94022129445608,0.9649916289102032,0.9999999999999998,0.9814689048123826,0.9280966839113411,0.878089728874061,0.8216778619355911,0.7783954648823295,0.7394990242390906,0.695352239376533,0.6494254617380599,0.6080655466778644,0.5768104095231994,0.5685937875112381,0.5971366072646263,0.6458509980258655,0.686802062553665,0.7008376493025394,0.6585652629676761,0.6042864652054172,0.5460851628640242,0.4878635460880898,0.4296419293121554,0.3716393071531234,0.3212586591042512,0.2675334507784594,0.2093372522744034,0.1511194748080231,0.0949883292826052,0.0522163377176512,0.0470643442328757,0.089134007129475,0.1461146759313809,0.1947504077971047,0.2507877435414072,0.3090047657382917,0.3672263825142261,0.4254479992901605,0.4836696160660949,0.5418880379065998,0.5980798376592065,0.6466042619924892,0.7029301987834715,0.7511088277029012,0.78226075612133,0.7386686217134704,0.6805376253338724,0.6224441656602946,0.577040057261305,0.5674175118758893,0.5702912749196194,0.600329282823443,0.6571014732514295,0.715319972969493,0.7709878027367698,0.7923328871742314,0.7858210294476664,0.79713776196668,0.7986414236015378,0.8035503991952389,0.8407320679302714,0.8834705579722499,0.911971732703872,0.9223851128512128,0.9168699561152251,0.9062309208669516,0.8940952850367421,0.8742216481897287,0.8517567710065042,0.8266263054327334,0.7970582604108718,0.7614545968691717,0.7283953167511856,0.6983893441649698,0.6825526492894136,0.6955882774602713,0.7324538165672154,0.7711772043507841,0.8039090377709994,0.8359730146515265,0.8652082194849082,0.8957832655433171,0.9218519404625984,0.9406969094321592,0.9373784790675102,0.931388294865658,0.922651588139254,0.9296988564069604,0.9389058561126352,0.9445283859016544,0.9445304197661551,0.9390170536960328,0.9321197269173982,0.9320007354173898,0.931996518473088,0.929864658628624,0.9202199983973104,0.9144865566471048,0.9070267171292664,0.9089025566303406,0.9175272917319888,0.901465452987787,0.8761847025233027,0.8625845179613687,0.8682982116425306,0.8811109606027709,0.8933776445064312,0.9183746261975448,0.882879758284427,0.8267038417119357,0.7781907829869861,0.7209962860051244,0.6627750981818925,0.6049612823664272,0.5555472834571622,0.5006768273228699,0.4424704211441408,0.3842488043682064,0.3260319709886958,0.2700208458379776,0.2213756775768101,0.1639475343148519,0.1080934803216224,0.0824270689624013,0.1180485630467733,0.1667126004605401,0.2221729821286753,0.2803832085993489,0.3362134208229737,0.3849688053034215,0.4424705602914467,0.5006898359015235,0.5573420634891988,0.6057391794002323,0.6625172145744391,0.7127813643420009,0.76563501071947,0.8122662072089355,0.853536098080186,0.8915307970484789,0.9204727136014486,0.9311174614774692,0.9211823985888944,0.9071275430444994,0.8854933950960235,0.8658735130403155,0.8420732833464257,0.813321095639485,0.7785693116047625,0.7409114896610545,0.7118636135539058,0.6911295225239875,0.6840548520829859,0.7133693257406288,0.7543100912640082,0.7931473568189515,0.8331861800551683,0.8654267881994213,0.896998567013809,0.9185292389614366,0.9300267290643311,0.9237477907364472,0.9310836091354522,0.9320004096861992,0.932655170558948,0.9424400035846772,0.9537849052320396,0.9577070183962244,0.9667197326104848,0.9624702297165444,0.9631125560888638,0.9572210271007532,0.9501126854756364,0.9546931848255722,0.95715821043132,0.9571643155493612,0.9572640574476708,0.963511379908242,0.9624724059172324,0.9491378384141348,0.9226627985829284,0.9126225128742808,0.9195550336623752,0.928074237451752,0.9436001863020392,0.9656672752432304,0.9218119464292772,0.8720776129821488,0.8176843434347314,0.759482190453783,0.7018604976996989,0.6528956038812253,0.5973907247112091,0.5391775134160313,0.4809558966400968,0.4227537658526841,0.3695554817929054,0.3299586418082363,0.2817243504904687,0.2275715925645065,0.1693715661824479,0.1111505186454866,0.0539048750212862,0.008344479951559,0.0,0.0415566512973557,0.0984975467752571,0.1484327573692037,0.202695868477617,0.2608979213683475,0.3191188964236773,0.3762627171268993,0.4247474666655162,0.481204171907166,0.5390997787970513,0.5889989115724712,0.6432817645874396,0.6973223016115888,0.7468412018352708,0.794483311942473,0.8360193713453052,0.8717627136347541,0.8908465314134959,0.8861040413290187,0.8722036904868851,0.8590362053944676,0.8373658290777228,0.8184799022981579,0.7991391855121173,0.7672245404355194,0.7324804450103073,0.7043144900086149,0.6756219725015975,0.6731270780923493,0.6988723357394788,0.7380725210013188,0.7754911400872189,0.8121743385334022,0.8437995234051774,0.870938190163425,0.8906784199879076,0.8835925879424311,0.8747500594736841,0.8794275623088461,0.8907474812791618,0.8953569865669986,0.8989960464098912,0.8982920206809808,0.894664685047726,0.8977020662952528,0.894351815888563,0.3240527271668214,0.2975348205237154,0.2646319254539031,0.2294405278344029,0.1877815594742686,0.1530457868975827,0.1159623980681745,0.0805586911269087,0.0470069648077517,0.0126910260869883,0.0,0.0230864418919565,0.0590643854677568,0.0936904410776335,0.1254064250150468,0.1539608034210351,0.1787894222195916,0.203563616470388,0.228329976839988,0.2510410903133495,0.2680404043110216,0.283906081686442,0.2975159916792855,0.3188359026727188,0.3555370764085466,0.3908627295336255,0.4302887553464991,0.4722917351774098,0.513669919796504,0.5601849589582493,0.6068794808952935,0.6483182719320335,0.6974658603226231,0.7469943866862434,0.7927919479777299,0.8349814966797737,0.8842748960768123,0.928999305690879,0.9441348169422552,0.9200901189869404,0.8754047320591991,0.8276072731086916,0.7868656893933377,0.7381468655499672,0.6885995711689561,0.6400007817595355,0.5993814894453937,0.5513141041270258,0.5017674422765661,0.4522190448215513,0.4026706473665369,0.3531222499115223,0.3035738524565079,0.2540830999504546,0.2097780785106564,0.1706956351305346,0.1830646714359343,0.2315561836604545,0.2734714129470923,0.3194237609756001,0.3615395631157214,0.3971505627083658,0.4127576873863046,0.4125252017619749,0.4037884511966547,0.3939875279164131,0.3868295363401322,0.3859652048887547,0.4048229399014076,0.4226522701961845,0.4250837453056426,0.4337679284041353,0.4356147248945059,0.4284979996153708,0.4313092321858884,0.427314707344671,0.4334574828072088,0.4326119357119737,0.4331390854047581,0.4328817665987703,0.4248600294130202,0.4235395670928177,0.4141240094003255,0.4043424325132772,0.4019241362389183,0.4091394155167174,0.4189443109344941,0.4310679596173727,0.4351916481459841,0.4264583084429691,0.4137063949257447,0.3951037604603999,0.3727967325849781,0.3462119292471157,0.3141222579113187,0.2819847660583725,0.246432420787457,0.2110605786949249,0.1762459052573852,0.1400206985252425,0.1068543740552026,0.0813154274086589,0.0959665916957217,0.124606397593584,0.1555456590594348,0.1859073600484355,0.2157078802153109,0.242434446615569,0.2652203484702549,0.2918389856096539,0.3043583138687273,0.3170109111543613,0.3313778200621833,0.3474272663741629,0.374501554880349,0.4084902301082045,0.4429995566563516,0.480590693701266,0.5272880336699375,0.5714098568196779,0.6151532797729011,0.6646266083719587,0.714172013544585,0.7617986094247513,0.8026252221949428,0.8514550053255987,0.8989107224242909,0.9394308184244986,0.9739649759624718,0.9682326961394256,0.9268058121569354,0.8773460773020321,0.8277976798470172,0.7782573931971735,0.7312852625795894,0.6900619200057916,0.6409662643356366,0.591418190838124,0.542505168506648,0.501522826177422,0.454131613979613,0.40462984299796,0.3597029961109219,0.3167242158422552,0.267303712592855,0.2177554066074469,0.1693777025566507,0.1611096673610492,0.2071557428222457,0.2517218488454142,0.2949091235854484,0.3376064289670581,0.3797984458651346,0.4151828615528996,0.4244126270232018,0.422513995634995,0.4090131103615597,0.4013150016373592,0.3887479784590508,0.3833838129937417,0.4006320851710547,0.4209146218049446,0.4244714491429415,0.4244817449872466,0.4244817449872466,0.4244817449872466,0.4244819549884708,0.4250839420950001,0.43376201542128,0.435839118285364,0.4357717267180252,0.4299946402588042,0.424308061363831,0.4188044234582029,0.4221106639646748,0.4145161336552998,0.4222277838589854,0.4244688592152728,0.4220441407941124,0.406539215463114,0.3828844456390359,0.3573487935222852,0.3256829404817949,0.2926460060515665,0.2596099708242414,0.2245789791427832,0.1895233965289657,0.1506754536530317,0.1174936410231282,0.1014981809313693,0.1209405020700187,0.1500833667760357,0.1798153939199054,0.2096263697989893,0.241413409727075,0.2672717190129452,0.2889625672192091,0.3088209496036807,0.3256844034431696,0.3422087342595576,0.3586007183112314,0.372741238154032,0.3974019442545649,0.4332090059057716,0.4719818836088776,0.5105887119903878,0.558580156321872,0.6081271767416001,0.6576753079064028,0.7064906537510764,0.7472604298866008,0.7949618444814424,0.8444983062004856,0.8911547246347986,0.9326220188601062,0.9791051257423544,1.0,0.9820095877308416,0.9409855125609896,0.8915684398240837,0.8446604677180756,0.8033855964931704,0.7542770430791692,0.7047287410628553,0.6553667274045343,0.612740204512642,0.5674207657793153,0.5178974594182342,0.4686402382780366,0.4269045248748939,0.380601281340436,0.3310662035597327,0.2820932999992569,0.2428011997248984,0.2436506291148514,0.2907604589652106,0.3322625010095632,0.3788771597886329,0.424937192253721,0.4459467177908376,0.4471782603889362,0.4429786067908803,0.4260468217503586,0.4130526888154686,0.4021999928697688,0.3984199058789714,0.4162188328956333,0.4243605361731994,0.4244817449872466,0.4244819347821675,0.425058045756201,0.4332062608225246,0.427561254474424,0.4322472611748769,0.4259183241423219,0.6609493559624342,0.6720580106974068,0.6966467390155406,0.702074194457599,0.6955263164140129,0.7224698860368441,0.73809221542861,0.7095015251805226,0.6706722092430373,0.6825787168072903,0.7048888798215684,0.7072543589812934,0.7018607393955558,0.7088699052736702,0.6803333422460085,0.6533889836149656,0.6640437070024401,0.6949910509373192,0.7236721742168131,0.6849855577960651,0.6097220648371815,0.5236997505640479,0.4198801549872155,0.3139126485689725,0.2084784352057793,0.1022900445013781,0.0198458848468479,0.0651100128287835,0.1677173169659536,0.2745362776479338,0.3781010572301326,0.4794632141295523,0.5881971257046454,0.689641708701231,0.7724930576195264,0.7378080989814317,0.6968153423532204,0.6781864541009277,0.6616035387117023,0.638420632790206,0.6127826236554599,0.5752811538968468,0.5311363587039653,0.5182164693544933,0.55878447947592,0.6063047014099125,0.639269788151914,0.6622747481445588,0.6766774607525896,0.6840643412668364,0.6873674674037153,0.6824450670504301,0.693585354371145,0.6860699040051368,0.6950502745068561,0.699919633818292,0.706355381067914,0.6997867258671189,0.7044230092748136,0.6972773390031977,0.6728709685661998,0.6708045136881706,0.7049690881197335,0.7511607045484414,0.7554325481505271,0.6812953367682888,0.5827774473341569,0.4776732599734425,0.3746396859692824,0.2627782184557734,0.1613174267188224,0.0538186638959903,0.0,0.0721418908017978,0.1833734070181991,0.2838678480847401,0.3842239508330087,0.4944164886354287,0.5902455855836894,0.6745887909775341,0.776792386373431,0.7968406265818735,0.7715441576585604,0.7512624627149558,0.7307882854303798,0.7031139534060231,0.6665460406408599,0.6236240948470066,0.5636332901644057,0.531291601900759,0.5561263477645815,0.6152750928251822,0.6582777607815964,0.6808423903153966,0.6947745230585518,0.7142334748502699,0.716648353635791,0.7044527892082617,0.7180456014206906,0.7508312418765684,0.8003976804440991,0.7953010127616857,0.7779152751147245,0.801275422809264,0.7463270563852094,0.7200522569695873,0.7308617757342608,0.7032392822672358,0.6487504461139726,0.6282330238145177,0.671005172852936,0.7213154294813666,0.7262793620529546,0.6839381293391265,0.5994756053696482,0.5014364676703598,0.4024211001819071,0.2926580266331813,0.1909347691790164,0.0919439175281482,0.0835745201301292,0.1720913304360727,0.2743444609099188,0.3757579566896565,0.4888658113110193,0.6020672260100159,0.7033179577504458,0.7762073709222288,0.7467695676246597,0.6961789653824075,0.6548619744928494,0.6385400939770829,0.670871852662982,0.7010020487106403,0.7417281678858658,0.7957864481367425,0.8626299307039607,0.9514944205240372,0.978057140197698,0.8954130314009712,0.7889282353710549,0.6874753383937215,0.5762416138888677,0.4758832048546533,0.4326768036194504,0.5102388328145921,0.5869444573026752,0.6769962938222012,0.744458056885569,0.7833905176647282,0.8187624637222308,0.778486894633077,0.7309966998425228,0.7253677155015597,0.7761344033290012,0.7919572501155243,0.7871514175313514,0.8324071721098387,0.8965226100381178,0.918530484995272,0.8696077238058963,0.8743343403811497,0.8663619370295534,0.8203592547042926,0.7764789450099396,0.7642260756531076,0.7777969569277943,0.7752655114145113,0.7490471206443448,0.7365970147802523,0.7169408724665205,0.678722982046216,0.6254265153248113,0.5971379848744363,0.6437625571074808,0.6942832718632173,0.7337002644417145,0.7700018504289368,0.7922799626043946,0.8084488835923196,0.8321979246498983,0.8791950125306487,0.9650066610452108,1.0,0.9302970214892584,0.8295441873602636,0.7160535289078171,0.6014366400006281,0.4875559825732596,0.38533600647862,0.3249003600875269,0.4082793781575007,0.5103687203945122,0.6173805999315389,0.7160724482649927,0.7959280093143484,0.8256154324116034,0.8084396639872882,0.7654831714949601,0.7247435068069588,0.7305230033172618,0.7565920094632821,0.757921016793587,0.7610993735051128,0.7664738943026652,0.7538198296209484,0.7550801506174567,0.7442348257754272,0.7405273423221757,0.7405128159379397,0.740200773230776,0.7316676904359705,0.7263424797951283,0.7170724227034091,0.6987469092380807,0.6689863014422248,0.6351703700475961,0.5879490611549962,0.5954769400697653,0.6377218007071899,0.6747387390895958,0.697216494194838,0.7221332697752727,0.7370228610942,0.7537358001719743,0.8076964155206832,0.902084396475547,0.9794413638407105,0.956704290884125,0.8616098951744284,0.7534136860181007,0.6502116228725239,0.5442639786364825,0.4933326256210399,0.5716115070072751,0.6772741710658909,0.7524648516505885,0.772336004752241,0.7527368094993103,0.7236214385780206,0.7159722074929205,0.7434151267914162,0.7574312468711382,0.7586071577316127,0.7693460010912365,0.7526331738711209,0.7450283600646208,0.7964158777569725,0.8224031038499766,0.7866449107971074,0.7656709511503785,0.7575196085310747,0.7624516700865764,0.7370265689427642,0.7217367591915282,0.2210339520757684,0.2522640835515355,0.2753662360519857,0.287961117176857,0.2893288636016626,0.2848050110708016,0.2802897108273627,0.288900059988282,0.2975384129233427,0.298843567875533,0.3069256897233232,0.3144847210460453,0.3056538935988937,0.3059374751392607,0.3084910549386555,0.3057303613058626,0.3359742793384099,0.3774637040676072,0.413574255795504,0.4109366070288511,0.3821683073035335,0.3576511728334164,0.3417320045867968,0.3282310425695331,0.3160529749004472,0.3262496269469535,0.3741744778021851,0.4332645216495452,0.4990614833330165,0.568201415011202,0.6374587517610184,0.707226955354602,0.7800703463784124,0.850755520198438,0.9160476875186316,0.9302865826973532,0.8705375386085734,0.7938512353576281,0.7168933021481978,0.6461224257824498,0.5737336778697615,0.496656979760476,0.4195089107020515,0.3424256342671254,0.2700921552228557,0.2164109774534033,0.246386766798704,0.2810362837205313,0.2950976340109099,0.2834104498658638,0.2452570462084629,0.228180407060232,0.248411517919818,0.2511148187068821,0.2504278597001377,0.2510133227493076,0.2391932439791204,0.2341911153857063,0.2300066949776478,0.2307065948598672,0.2420670831897566,0.2456231166604836,0.2631176484004895,0.2788278614913664,0.2905712141817473,0.2959014132133675,0.3112267168121776,0.3401770566463926,0.3782875571776152,0.4217312129059247,0.4574758932402019,0.4537740310392535,0.4214283134422323,0.3874344848424267,0.3619891447766576,0.3400436335329295,0.3204941697230024,0.3079435516582669,0.3264745386600045,0.3782004594039621,0.43888144755969,0.5063690925213264,0.578901676687281,0.646995124350874,0.7146232937089798,0.7886422607572632,0.8657686773923503,0.9418505601260532,1.0,0.9913371657032122,0.922201559143048,0.8485780460139765,0.7789183785123641,0.7021764358431333,0.6250285060268683,0.5479438643036136,0.4754662174187047,0.4047745690278921,0.3278452280133959,0.2531536681890056,0.1987921361680236,0.2266057387398581,0.2666925832432905,0.2838787451302111,0.2734530466487541,0.2443931276356898,0.2227037962449012,0.2521913188822238,0.2638978359035595,0.2657793690522185,0.2689115315341344,0.2569465384379594,0.2584012067317665,0.2579829684168679,0.2535514081239702,0.2546168340273114,0.2597654896847703,0.2654255220950021,0.2668256614977244,0.2627391802593188,0.2600611178821712,0.2539772058613967,0.2574347746794043,0.280930554966271,0.3216817770819224,0.3630515676416705,0.3815157207808182,0.3576467015707527,0.3188058292432876,0.3255696095602913,0.3179327591310608,0.2777214968870676,0.2424356062258683,0.2013993772032232,0.1375459379219323,0.0611699820951769,0.0061111827548225,0.0,0.0361674919981056,0.1104929392907336,0.1816293251451686,0.2144129694751215,0.2200390708864248,0.2244700682679163,0.2313266169164889,0.2257784280260739,0.2163012969044004,0.2139767221970741,0.2139669665739163,0.2139681363999308,0.2148722578761039,0.2232954660901711,0.2239275804496636,0.223981807408693,0.2194951494580888,0.1859488568651557,0.1815345188542849,0.2163169957996236,0.2409698168049003,0.2324041285006222,0.191224157495417,0.1219215591893478,0.0549349461324994,0.0329597430038244,0.0881727559114839,0.1560150632419099,0.2242962350666171,0.298834244040181,0.3745077508902028,0.443057775894522,0.5188743289255422,0.5960197593183407,0.6731481960790338,0.7414132686699846,0.7213270766778832,0.6542508275547898,0.5825291404418094,0.512962159095042,0.4372436787542462,0.372809299452685,0.3171451549310271,0.2782694144413102,0.2659483775504909,0.2804396636702131,0.2990638622908854,0.3195731386520963,0.3420606518345173,0.3710225898103487,0.4033952311394284,0.4098306301725589,0.3692420302703396,0.3303166956525116,0.2941071300053548,0.2684796017909276,0.2556137308084603,0.2506510966800441,0.241629910990093,0.2196031966418845,0.2039951122062966,0.1981863217582622,0.1914252986506281,0.1912776470843358,0.1966568112937445,0.2062096377209139,0.2176573716772052,0.2086712125262713,0.2121829220280149,0.1992730572613743,0.1825595099673382,0.2012927391090826,0.245940430792884,0.2502358545771115,0.2215185866998277,0.1595040235628941,0.0924731564047562,0.0508694858591272,0.0843317405913064,0.1522783980257411,0.2173824573740288,0.2873144173576374,0.364005831514038,0.4306936392701255,0.49285387668623,0.5427042625955707,0.5021823924050204,0.4358521608452697,0.374550026219937,0.321089295381108,0.2809387056448813,0.2673280682994114,0.2768504840797983,0.2935440770645501,0.3097837735054878,0.3168377612604365,0.3439890471114486,0.3712317409681509,0.3544794321916951,0.3137342920064945,0.2806354498641961,0.2647057856218351,0.2692318473810928,0.2627393317080535,0.2688318671527372,0.2687966492745388,0.2553646513774312,0.2519398777612835,0.2571243732701003,0.2526238688683453,0.2470917799019794,0.2397538071399991,0.2470324538056556,0.2462148613301547,0.2317523813152178,0.207910492216087,0.1699747611357882,0.255761784599136,0.2559281565656688,0.2873750501146634,0.3406619367187131,0.3727028373742964,0.4073356722332901,0.4415160858251963,0.4651697105888721,0.4934150253817009,0.4985597206094576,0.4899366701499286,0.4495336279166371,0.3859845940976578,0.3209370396337574,0.2558889722362392,0.1912752278627945,0.1449039607429489,0.1015203270775089,0.0494271706623985,0.0166457428673103,0.000547064717268,0.0,0.0125852921906686,0.0670855881043781,0.1227586710450943,0.1650701476457294,0.1859962810032462,0.1775399113061055,0.1877033114626023,0.2495318689800587,0.3145789578580604,0.3796270252555782,0.4446748164580718,0.5086086517142689,0.557494957148573,0.61903543626631,0.6840813256687746,0.7491293930662932,0.8141774604638106,0.8791464388688062,0.93429846374495,0.9603802502909063,0.9087321013503612,0.8592664549710074,0.7987616106891147,0.7338343194268502,0.681646816346611,0.6397810113487812,0.6018234603477182,0.5706362253788213,0.5382559451902877,0.5204975116572124,0.5183874935287336,0.5019035216652239,0.514113582640396,0.5193784105921657,0.5204483667544086,0.5365582252399896,0.5401662858362979,0.5401695291550195,0.5423056955173,0.5595574305108015,0.5615578364581664,0.5771734439958447,0.5790321818515949,0.5624586957984925,0.5608777019190994,0.5500468057180523,0.5285057204060415,0.519297286828543,0.505965363560906,0.4986238377995184,0.4987796433668499,0.5103545596929404,0.5193344949116279,0.5193825535175396,0.5192701061761347,0.5064892509940537,0.4986028480180611,0.4910151230241206,0.4780705040241995,0.4778104803687499,0.4778104803687499,0.4778104803687499,0.4778104803687499,0.4763162773336589,0.4626835168476848,0.4769450873752889,0.4778104803687499,0.4778112616061065,0.4797041102967299,0.4966963279020668,0.4985963591174167,0.4983619547371805,0.4823540765115317,0.4479464661574459,0.4138544731982105,0.3920168842453688,0.3748520331666416,0.3816554146670912,0.420480716606094,0.4590880775624386,0.4809811330914106,0.5087152682122649,0.5208245664925966,0.5366196153498914,0.5174318882892108,0.4640699244075055,0.4163487538643018,0.3540159492818326,0.3030996960882866,0.2560362329112915,0.2230653609130688,0.1912258583796453,0.196348092690576,0.2498522162712424,0.2976201544035035,0.3615309463555167,0.426579013753035,0.4916270811505527,0.5566743515281418,0.6198052384678716,0.6678351365212354,0.731033408861669,0.79607540370028,0.8535617087462173,0.8277722349708228,0.7780946041645689,0.7222150822914348,0.6740920173293774,0.627779242548486,0.5845164149208704,0.5529166733799911,0.513690956105521,0.483873008729021,0.4771165246023683,0.4613809376715183,0.4573743892268056,0.4716455336157485,0.4653113621627178,0.4739212969552837,0.4939632951883648,0.4847418444947897,0.4955557187891206,0.4985958461837985,0.5007336223685108,0.5179853573620119,0.5193825535175396,0.5193825535175396,0.5193825535175396,0.5193799967407373,0.5155709915113742,0.49956493998106,0.4989652828959383,0.5126287214277734,0.5015025618018067,0.5149684022420917,0.5193792391772405,0.5193825535175396,0.5185549637338691,0.5026960349786376,0.5120560161528092,0.5010117192537629,0.4919522867110983,0.4781202610565045,0.4778082392434042,0.4742504148053599,0.4584108151689974,0.4699018600058449,0.4598616965732915,0.4570256985088967,0.4570244437943551,0.4570244437943551,0.4570244437943551,0.4562613718568995,0.4403590508666388,0.4434176607352622,0.4568678396113266,0.4553584872027665,0.43106395919779,0.4048405771400976,0.3665014527983858,0.3433138712220862,0.3324425959327621,0.3349170035937621,0.3701498348034335,0.4101634730443888,0.4358437324946034,0.4609312841848183,0.4825678092979411,0.4980049601754803,0.4818884882027756,0.4335304935573592,0.3773164871012007,0.3266119806276997,0.2921254547259222,0.2533935648043179,0.2297297029259417,0.2302495930624402,0.25669882875256,0.3145906228308686,0.3796270252555795,0.4446748164580723,0.5086086517142694,0.557494957148573,0.6190354362663104,0.684081325668775,0.7491293930662932,0.8141774604638115,0.8792255278613288,0.944262248996162,1.0,0.9707969953167628,0.9216245646941924,0.8611237923160959,0.8011001264952329,0.7527022248955433,0.7072221982738252,0.6638177832351344,0.6264378178858809,0.6004138943895962,0.578788996069993,0.5571852375275332,0.5411387562068284,0.5556875678661894,0.564428353630253,0.5732658632611392,0.572453081665873,0.5816842061040952,0.5817406632407245,0.5817406632407245,0.5817406632407245,0.5817406632407245,0.5817394953303339,0.5790338232391719,0.559200425966432,0.5406164858172233,0.5233464869277316,0.5193885999556556,0.5193825535175396,0.5193825535175396,0.5195159229089401,0.5302191990644216,0.5453776615715582,0.5503025052626915,0.5393233837048443,0.522429328811834,0.5192272513967713,0.5057757704584471,0.5027171605898237,0.5185644241985754,0.5099290891324775,0.4990532371220189,0.5124819124952555,0.5193694887896125,0.389576547733083,0.3613581553131919,0.3257318436129115,0.2838602633635132,0.2350840264601494,0.1915561246330523,0.152004180290689,0.11270600547849,0.0881120860537867,0.1067237055750387,0.1440057943722272,0.1837562845164619,0.2260148360667668,0.2584985893639573,0.2962864583680977,0.3227098140975657,0.3454297925266012,0.3695643286402015,0.3984113568398031,0.41313667848435,0.4262381161833766,0.4424539170819954,0.4605044710354062,0.5043981568323106,0.5402352178043055,0.5861562264061517,0.6357285780573523,0.6888859944922994,0.7389408868113831,0.79293219258441,0.8519581712431374,0.9043030591079556,0.9542963840918136,0.9870345170444514,0.9703343468314068,0.917370474922407,0.8614449108771429,0.813027814386335,0.7544229617713276,0.6952926531939572,0.6361885706105659,0.5817698231645962,0.5320415795139735,0.4732003458579015,0.4140700372805315,0.354939728703161,0.2961239851832113,0.2467843734776738,0.1919660653840897,0.1367280288491541,0.1458298251236505,0.2035776406240288,0.2622674053403526,0.3111565148086941,0.3664411969369865,0.4172776798777764,0.4550738499412035,0.4865278133799962,0.5132250227328343,0.5159713469233933,0.5139691765609362,0.4948278125582741,0.4864185927422262,0.4731355311476706,0.4685931152744105,0.4878836963061645,0.5089075855607701,0.515604557464101,0.511235948279299,0.5157889727883711,0.5141500529300649,0.5028485763707968,0.5015495872924272,0.5015623420359476,0.5055396465044353,0.5063074135105461,0.5015672407676706,0.5014785310926972,0.4947480829412132,0.4871024564159707,0.4796179072925246,0.4727662896000797,0.4741285383589508,0.4859372743891399,0.4977024065911075,0.4922771288529539,0.4842345758949673,0.4720016123090789,0.4528919712897588,0.4314531538986401,0.4038975622806549,0.3769477528175049,0.3336943394023721,0.2952317744468991,0.2549306546039911,0.2123947473123209,0.172932044864688,0.1339469274591993,0.1188001020691202,0.146829952084613,0.1853458442373468,0.2206543065033022,0.2550424992967357,0.2848112181446012,0.3188180350322607,0.3432966401448649,0.3642189528953536,0.3723067736038905,0.3842424249900913,0.4007497368493775,0.4212630153570467,0.449121224590485,0.4811784145539313,0.5224286382609014,0.5684028509382737,0.6217086316331513,0.6710084344133944,0.7298069417721875,0.7866009814712267,0.834519729201477,0.8917122443164895,0.9348758892821574,0.941903664338797,0.9051717696220388,0.8491946673242563,0.7900708989997904,0.73094059042242,0.6718102818450491,0.6126799732676804,0.5535496646903095,0.4944193561129391,0.4352890475355686,0.3763153898666986,0.3252317883487741,0.2722742296527582,0.2131967401995129,0.1540664316221425,0.0949841378681644,0.0421993576812174,0.0,0.0268328549100831,0.0855997585325558,0.1443748054971283,0.1937359279430037,0.2485821170619162,0.307589621491551,0.3589825172730407,0.4096024394044779,0.4520792544910021,0.4835019973530434,0.4870100388007381,0.4791933732996709,0.4574930695437322,0.4434883870862618,0.4301137781226367,0.417708384375455,0.4363787563813781,0.459663236511971,0.4724273576703435,0.4750829868113138,0.4861555917642459,0.4809048242947471,0.4832107985182439,0.4739600651634401,0.4726917011588869,0.4731692693659306,0.4836202520205288,0.4871105512292362,0.4871200165852054,0.4871189352816076,0.485669045177781,0.4771389939455457,0.4845663619642495,0.4739905212571356,0.4726878565282184,0.470305563924396,0.4582131238530962,0.4400356329442034,0.4126624092078825,0.3812634398885179,0.3529267293855762,0.3140247766204187,0.2746194552204362,0.2350495883745404,0.1923672480848937,0.1545854936702191,0.1204996824327364,0.1350341799746577,0.1645084676279509,0.1974385397393516,0.230980231744877,0.2658949593049227,0.3013543877109976,0.3372532940320873,0.3593431678612855,0.3831396264803219,0.3995482904756267,0.4159915626816384,0.4343344914052494,0.4558932761159144,0.4762213263724446,0.5058034829202163,0.5448669825634378,0.5924403749601408,0.6508743768002117,0.7100034381433515,0.7674768546383086,0.8151809121362625,0.8729656999436359,0.92997091684476,0.9751027920680436,1.0000000000000002,0.978938900139598,0.925438393684159,0.8741693991465562,0.8214157421940425,0.7623447255998756,0.7032144170225052,0.6440844866387401,0.5860383929295112,0.5384015217116376,0.481120822218857,0.4219918011090791,0.3628614925317086,0.3037313931678229,0.2453429460544887,0.1970783148302366,0.1407642778533231,0.081707608472817,0.0404504537203063,0.0809592394006648,0.1289113003644633,0.1854750027197076,0.2445927022134875,0.300373402832484,0.3490209900565,0.4059877382002368,0.45361457160712,0.5009655230587187,0.5203856466520895,0.5300883261038545,0.5222804509422228,0.4989856798537417,0.4767256464032618,0.4649197125678326,0.4598196146349436,0.4796968106963344,0.4999532288520172,0.5015477504344827,0.5015489435586307,0.5015489435586307,0.5015489435586307,0.5015489435586307,0.5015489435586307,0.5015489435586307,0.6669319427991787,0.686523423612186,0.7179944915844225,0.7523117645742792,0.7311534763392671,0.7352066821484597,0.7887141528743378,0.8378588515706977,0.7877707230241211,0.7027687375990772,0.6173951892582497,0.5476718879600102,0.5392414222572479,0.5314788502358327,0.5022660617769534,0.4756306783828097,0.4608757787344517,0.4495144554520704,0.4105148399262708,0.3659477947421776,0.345002844219954,0.3732741955080927,0.3941607411074064,0.3976094604387219,0.3723193314560298,0.299359363942616,0.2208017413690068,0.1356705261220914,0.0503313958889064,0.0,0.0572272060554173,0.1426586841972517,0.2349866946933492,0.3192092695044528,0.4021604252076058,0.4427651179972698,0.39879849100243,0.3777424427100113,0.3813659588110831,0.3732138982847397,0.3525489501291314,0.3543470813042906,0.3359558176816759,0.3107962958737693,0.3139759156923172,0.3539666511195238,0.3761015978467763,0.3945113268903717,0.4185957737970436,0.4412365028066416,0.4636842489832267,0.4815210387630388,0.4920625053495824,0.5011646297848658,0.5292070278281464,0.5488642901147665,0.5609939760847147,0.5740292199041468,0.5816461627651077,0.5980460062697026,0.6018041967958747,0.5878674461625457,0.5831388891194043,0.6070138358873014,0.6471638296430373,0.6873395948084005,0.6804435345442559,0.6177403711810783,0.5378936658963207,0.4528438651585804,0.367129284732699,0.3019660288154653,0.3349696024718667,0.4261652244793352,0.5197102058454273,0.599729497825364,0.6716129234243238,0.6984311677708099,0.7083450303846512,0.6915395205553674,0.6798106224008928,0.67915177716328,0.6676053205063592,0.6557026652456712,0.6202220460128234,0.6067881885266448,0.6336203712284174,0.6643376252905848,0.6896835189277626,0.6977909711413632,0.713749227651018,0.7364447641795593,0.7622598016413353,0.7424257608877585,0.7489974688759697,0.7900552271237129,0.8538317361363483,0.9132734747592116,0.8895063130933996,0.8217719438430522,0.7743081278265951,0.7652387932445839,0.7031104280299023,0.6291303270936783,0.5743125193287635,0.5365558036695677,0.4999393622664763,0.4684708391041288,0.4240732821749167,0.4320737975787065,0.4863460431084103,0.5124310782914558,0.5364521320199511,0.4961872782524268,0.4511181155173851,0.380359079959454,0.3051239666778573,0.2220939602665073,0.1542880340792241,0.1775928688708172,0.2628812789239108,0.3492417939021277,0.4354741259022394,0.5256702280608572,0.5423976195714348,0.4979438422633113,0.4424507940223643,0.3621173473814902,0.2925336542379897,0.2624434105938227,0.266366290506232,0.3002866677197833,0.3303350248416317,0.392468499739214,0.4719247077592157,0.532677636840329,0.5829832460123732,0.6586804218386049,0.7139201133834314,0.6771454210049179,0.5966855950222807,0.5113308389770168,0.4295649449388832,0.4165767289977022,0.4812398910751208,0.5249175360107192,0.5759233231459953,0.6320181826759139,0.6253268886333347,0.5814225556673338,0.5321772900176875,0.4927017042180344,0.5247387607934697,0.5549004155414603,0.5947291769880505,0.6383643182923842,0.7076090019628491,0.7760478986659889,0.8500098322895568,0.9257293276964198,0.956564764940576,0.901465965799424,0.9122950640845388,0.9647543958389044,1.0,0.9749150440297076,0.9070693266430174,0.8305832762900822,0.7944701991470273,0.8086169080135179,0.815524975307941,0.7845622818590199,0.7544767145907256,0.7486684205791052,0.7387214892675318,0.7068865165097367,0.6711623925060874,0.6621925453347619,0.6931140757224457,0.7217274323914356,0.723759848724892,0.7286428542842067,0.7385036579430331,0.7593681712504763,0.7891750420089543,0.8437118420988914,0.8327421856632866,0.7558745521742845,0.6619031145935415,0.5853719369670407,0.5948983645918466,0.6679738646670921,0.7205490029757202,0.7405829759681479,0.7191733357777355,0.6744919624442214,0.6378762390580337,0.6392887098863267,0.6528288316828399,0.6467290538243793,0.6382261728978151,0.6286562604387718,0.606212447981072,0.593300304832169,0.5812409213222258,0.5516108494261065,0.5350192609224962,0.5299194759203236,0.5107956230839283,0.4905127800230278,0.4669572676953444,0.4446311926038166,0.4259170475481659,0.4055090855010599,0.3705079040922454,0.3668174484758268,0.3876590928075978,0.3979561770475968,0.4150028921369726,0.4273261159117791,0.4280658632293206,0.449085695619225,0.5179884966606703,0.5803517677980343,0.5565519057484121,0.4767439608685042,0.394770217835366,0.3122055522989,0.2801129555567123,0.3502510511400913,0.4205385916395876,0.4515036687074252,0.44645736386166,0.4469630046549357,0.4226069613333165,0.4101331077774715,0.4534244605280513,0.4919105922455062,0.5129627668387284,0.5181308502644266,0.5437507552323675,0.5725583518436044,0.5983422827911631,0.6147821876272284,0.6872377792306348,0.7816745224042814,0.8649438106122309,0.9052223535966432,0.8794443912654937,0.8129849741595945,0.8001825805741372,0.8046557092127218,0.7698344493172788,0.7367253904052062,0.7171475071584248
